energy[MeV]     scat_coh[cm2/g] scat_incoh[cm2/g]       photo_abs[cm2/g]        pair_prod_NF[cm2/g]     pair_prod_EF[cm2/g] atten_tot_wCS[cm2/g] atten_tot_woCS[cm2/g]
1.000E-03 1.337E+00 1.046E-02 3.591E+03 0.000E+00 0.000E+00 3.593E+03 3.591E+03 
1.500E-03 1.223E+00 2.132E-02 1.184E+03 0.000E+00 0.000E+00 1.185E+03 1.184E+03 
2.000E-03 1.093E+00 3.364E-02 5.239E+02 0.000E+00 0.000E+00 5.250E+02 5.239E+02 
3.000E-03 8.446E-01 5.788E-02 1.604E+02 0.000E+00 0.000E+00 1.613E+02 1.605E+02 
4.000E-03 6.489E-01 7.820E-02 6.786E+01 0.000E+00 0.000E+00 6.859E+01 6.794E+01 
5.000E-03 5.082E-01 9.385E-02 3.446E+01 0.000E+00 0.000E+00 3.506E+01 3.456E+01 
6.000E-03 4.089E-01 1.057E-01 1.968E+01 0.000E+00 0.000E+00 2.020E+01 1.979E+01 
8.000E-03 2.853E-01 1.218E-01 8.047E+00 0.000E+00 0.000E+00 8.454E+00 8.169E+00 
1.000E-02 2.148E-01 1.322E-01 3.988E+00 0.000E+00 0.000E+00 4.335E+00 4.121E+00 
1.500E-02 1.268E-01 1.477E-01 1.094E+00 0.000E+00 0.000E+00 1.368E+00 1.241E+00 
2.000E-02 8.447E-02 1.561E-01 4.317E-01 0.000E+00 0.000E+00 6.723E-01 5.878E-01 
3.000E-02 4.454E-02 1.629E-01 1.148E-01 0.000E+00 0.000E+00 3.223E-01 2.778E-01 
4.000E-02 2.722E-02 1.635E-01 4.454E-02 0.000E+00 0.000E+00 2.353E-01 2.081E-01 
5.000E-02 1.832E-02 1.617E-01 2.130E-02 0.000E+00 0.000E+00 2.013E-01 1.830E-01 
6.000E-02 1.316E-02 1.589E-01 1.164E-02 0.000E+00 0.000E+00 1.837E-01 1.706E-01 
8.000E-02 7.702E-03 1.526E-01 4.486E-03 0.000E+00 0.000E+00 1.648E-01 1.571E-01 
1.000E-01 5.037E-03 1.463E-01 2.142E-03 0.000E+00 0.000E+00 1.534E-01 1.484E-01 
1.500E-01 2.294E-03 1.326E-01 5.647E-04 0.000E+00 0.000E+00 1.355E-01 1.332E-01 
2.000E-01 1.302E-03 1.218E-01 2.230E-04 0.000E+00 0.000E+00 1.234E-01 1.221E-01 
3.000E-01 5.827E-04 1.062E-01 6.280E-05 0.000E+00 0.000E+00 1.068E-01 1.063E-01 
4.000E-01 3.285E-04 9.523E-02 2.686E-05 0.000E+00 0.000E+00 9.559E-02 9.526E-02 
5.000E-01 2.105E-04 8.699E-02 1.446E-05 0.000E+00 0.000E+00 8.721E-02 8.700E-02 
6.000E-01 1.463E-04 8.049E-02 9.006E-06 0.000E+00 0.000E+00 8.065E-02 8.050E-02 
8.000E-01 8.232E-05 7.073E-02 4.544E-06 0.000E+00 0.000E+00 7.082E-02 7.074E-02 
1.000E+00 5.270E-05 6.360E-02 2.825E-06 0.000E+00 0.000E+00 6.366E-02 6.360E-02 
1.022E+00 5.047E-05 6.295E-02 2.625E-06 0.000E+00 0.000E+00 6.300E-02 6.295E-02 
1.250E+00 3.374E-05 5.689E-02 1.782E-06 1.745E-05 0.000E+00 5.694E-02 5.691E-02 
1.500E+00 2.343E-05 5.169E-02 1.293E-06 9.661E-05 0.000E+00 5.181E-02 5.179E-02 
2.000E+00 1.318E-05 4.412E-02 8.142E-07 3.846E-04 0.000E+00 4.452E-02 4.451E-02 
2.044E+00 1.262E-05 4.356E-02 7.879E-07 4.145E-04 0.000E+00 4.399E-02 4.398E-02 
3.000E+00 5.857E-06 3.471E-02 4.556E-07 1.100E-03 1.214E-05 3.583E-02 3.583E-02 
4.000E+00 3.296E-06 2.896E-02 3.130E-07 1.784E-03 4.958E-05 3.079E-02 3.079E-02 
5.000E+00 2.109E-06 2.500E-02 2.375E-07 2.394E-03 9.881E-05 2.750E-02 2.750E-02 
6.000E+00 1.465E-06 2.210E-02 1.910E-07 2.943E-03 1.517E-04 2.520E-02 2.520E-02 
7.000E+00 1.076E-06 1.987E-02 1.596E-07 3.431E-03 2.046E-04 2.350E-02 2.350E-02 
8.000E+00 8.240E-07 1.808E-02 1.370E-07 3.871E-03 2.559E-04 2.221E-02 2.221E-02 
9.000E+00 6.511E-07 1.662E-02 1.200E-07 4.271E-03 3.052E-04 2.120E-02 2.120E-02 
1.000E+01 5.274E-07 1.540E-02 1.067E-07 4.633E-03 3.521E-04 2.038E-02 2.038E-02 
1.100E+01 4.358E-07 1.436E-02 9.603E-08 4.965E-03 3.966E-04 1.972E-02 1.972E-02 
1.200E+01 3.662E-07 1.347E-02 8.731E-08 5.267E-03 4.386E-04 1.917E-02 1.917E-02 
1.300E+01 3.120E-07 1.269E-02 8.004E-08 5.550E-03 4.786E-04 1.872E-02 1.872E-02 
1.400E+01 2.690E-07 1.200E-02 7.386E-08 5.812E-03 5.165E-04 1.833E-02 1.833E-02 
1.500E+01 2.344E-07 1.140E-02 6.857E-08 6.059E-03 5.525E-04 1.801E-02 1.801E-02 
1.600E+01 2.060E-07 1.085E-02 6.401E-08 6.290E-03 5.869E-04 1.773E-02 1.773E-02 
1.800E+01 1.628E-07 9.920E-03 5.646E-08 6.711E-03 6.510E-04 1.728E-02 1.728E-02 
2.000E+01 1.318E-07 9.146E-03 5.051E-08 7.088E-03 7.094E-04 1.694E-02 1.694E-02 
2.200E+01 1.089E-07 8.496E-03 4.568E-08 7.433E-03 7.636E-04 1.669E-02 1.669E-02 
2.400E+01 9.155E-08 7.938E-03 4.169E-08 7.744E-03 8.134E-04 1.650E-02 1.650E-02 
2.600E+01 7.800E-08 7.456E-03 3.835E-08 8.032E-03 8.598E-04 1.635E-02 1.635E-02 
2.800E+01 6.725E-08 7.034E-03 3.550E-08 8.294E-03 9.032E-04 1.623E-02 1.623E-02 
3.000E+01 5.860E-08 6.660E-03 3.305E-08 8.538E-03 9.436E-04 1.614E-02 1.614E-02 
4.000E+01 3.296E-08 5.293E-03 2.455E-08 9.542E-03 1.114E-03 1.595E-02 1.595E-02 
5.000E+01 2.109E-08 4.416E-03 1.953E-08 1.030E-02 1.247E-03 1.597E-02 1.597E-02 
6.000E+01 1.465E-08 3.805E-03 1.621E-08 1.091E-02 1.354E-03 1.607E-02 1.607E-02 
8.000E+01 8.237E-09 3.001E-03 1.211E-08 1.182E-02 1.521E-03 1.634E-02 1.634E-02 
1.000E+02 5.274E-09 2.491E-03 9.656E-09 1.249E-02 1.647E-03 1.663E-02 1.663E-02 
1.500E+02 2.343E-09 1.774E-03 6.413E-09 1.361E-02 1.865E-03 1.724E-02 1.724E-02 
2.000E+02 1.318E-09 1.391E-03 4.801E-09 1.430E-02 2.008E-03 1.770E-02 1.770E-02 
3.000E+02 5.857E-10 9.859E-04 3.194E-09 1.513E-02 2.191E-03 1.831E-02 1.831E-02 
4.000E+02 3.295E-10 7.722E-04 2.394E-09 1.562E-02 2.304E-03 1.870E-02 1.870E-02 
5.000E+02 2.109E-10 6.390E-04 1.914E-09 1.595E-02 2.383E-03 1.898E-02 1.898E-02 
6.000E+02 1.464E-10 5.474E-04 1.594E-09 1.619E-02 2.442E-03 1.918E-02 1.918E-02 
8.000E+02 8.237E-11 4.274E-04 1.195E-09 1.651E-02 2.523E-03 1.946E-02 1.946E-02 
1.000E+03 5.274E-11 3.516E-04 9.556E-10 1.672E-02 2.579E-03 1.965E-02 1.965E-02 
1.500E+03 2.343E-11 2.456E-04 6.369E-10 1.702E-02 2.661E-03 1.993E-02 1.993E-02 
2.000E+03 1.318E-11 1.901E-04 4.776E-10 1.719E-02 2.708E-03 2.009E-02 2.009E-02 
3.000E+03 5.857E-12 1.321E-04 3.183E-10 1.737E-02 2.760E-03 2.026E-02 2.026E-02 
4.000E+03 3.295E-12 1.020E-04 2.387E-10 1.747E-02 2.791E-03 2.036E-02 2.036E-02 
5.000E+03 2.109E-12 8.342E-05 1.910E-10 1.753E-02 2.809E-03 2.042E-02 2.042E-02 
6.000E+03 1.464E-12 7.073E-05 1.591E-10 1.757E-02 2.822E-03 2.047E-02 2.047E-02 
8.000E+03 8.237E-13 5.448E-05 1.193E-10 1.763E-02 2.840E-03 2.052E-02 2.052E-02 
1.000E+04 5.274E-13 4.450E-05 9.546E-11 1.766E-02 2.851E-03 2.056E-02 2.056E-02 
1.500E+04 2.343E-13 3.075E-05 6.364E-11 1.772E-02 2.866E-03 2.061E-02 2.061E-02 
2.000E+04 1.318E-13 2.364E-05 4.773E-11 1.774E-02 2.875E-03 2.064E-02 2.064E-02 
3.000E+04 5.857E-14 1.630E-05 3.182E-11 1.777E-02 2.884E-03 2.067E-02 2.067E-02 
4.000E+04 3.295E-14 1.252E-05 2.387E-11 1.779E-02 2.889E-03 2.069E-02 2.069E-02 
5.000E+04 2.109E-14 1.019E-05 1.909E-11 1.779E-02 2.892E-03 2.070E-02 2.070E-02 
6.000E+04 1.464E-14 8.614E-06 1.591E-11 1.780E-02 2.894E-03 2.070E-02 2.070E-02 
8.000E+04 8.237E-15 6.605E-06 1.193E-11 1.781E-02 2.897E-03 2.071E-02 2.071E-02 
1.000E+05 5.274E-15 5.374E-06 9.546E-12 1.781E-02 2.898E-03 2.072E-02 2.072E-02 
